# dimensionless total lensed [l(l+1)/2pi] C_l's
# for l=2 to 2500, i.e. number of multipoles equal to 2499
#
# -> if you prefer output in CAMB/HealPix/LensPix units/order, set 'format' to 'camb' in input file
# -> if you don't want to see such a header, set 'headers' to 'no' in input file
# -> for CMB lensing (phi), these are C_l^phi-phi for the lensing potential.
#    Remember the conversion factors:
#    C_l^dd (deflection) = l(l+1) C_l^phi-phi
#    C_l^gg (shear/convergence) = 1/4 (l(l+1))^2 C_l^phi-phi
#
# 1:l     2:TT                     3:EE                     4:TE                     5:BB                     6:phiphi                 7:TPhi                   8:Ephi               
    2       1.381677252450e-10       4.179748049943e-15       3.519338329417e-13       2.473922529437e-19       8.227220596067e-09       4.534776016547e-10      -1.842191685835e-12 
    3       1.306696510320e-10       5.354844549710e-15       3.955015568802e-13       4.948798869988e-19       5.063979357815e-09       3.216492844263e-10      -1.394828165171e-12 
    4       1.236018072492e-10       4.629690954290e-15       3.698084047568e-13       8.250098493508e-19       3.522791646880e-09       2.436227691702e-10      -9.126930646545e-13 
    5       1.183101077217e-10       3.087277297941e-15       3.148767190734e-13       1.237904026124e-18       2.631691974933e-09       1.924675704323e-10      -5.069102862646e-13 
    6       1.146813811965e-10       1.726246415193e-15       2.535645916871e-13       1.733710353203e-18       2.057604283133e-09       1.566156204584e-10      -2.080922178383e-13 
    7       1.123169230775e-10       9.338514054958e-16       1.990688551217e-13       2.312600067784e-18       1.661566594242e-09       1.303009880835e-10      -1.764403829157e-14 
    8       1.109368203346e-10       6.040762951127e-16       1.571589208635e-13       2.974764600342e-18       1.374523884077e-09       1.103404211519e-10       7.941226048898e-14 
    9       1.102929657603e-10       4.861496600971e-16       1.291081392914e-13       3.720412199285e-18       1.158411344300e-09       9.484872805866e-11       1.064349651088e-13 
   10       1.101546166724e-10       4.153012267944e-16       1.135880653450e-13       4.549764387076e-18       9.908258126910e-10       8.257625629081e-11       8.927683587592e-14 
   11       1.104630688012e-10       3.501108559386e-16       1.079366289731e-13       5.463052349606e-18       8.324874851487e-10       7.295882879253e-11       5.202985433704e-14 
   12       1.110666248265e-10       3.062218520328e-16       1.090961699331e-13       6.460513360079e-18       7.275626601257e-10       6.450946535636e-11       1.227545341639e-14 
   13       1.119149685040e-10       2.946323975913e-16       1.143824125478e-13       7.542387334662e-18       6.414113932332e-10       5.764872253299e-11      -1.798979151957e-14 
   14       1.129607737116e-10       3.073750712296e-16       1.217750776854e-13       8.708913609780e-18       5.697211232125e-10       5.167476829252e-11      -3.451191555899e-14 
   15       1.141906753043e-10       3.327069456264e-16       1.299846933448e-13       9.960328020610e-18       5.093655800933e-10       4.665013899299e-11      -3.750025490046e-14 
   16       1.155293829038e-10       3.681046449693e-16       1.383481760197e-13       1.129686034737e-17       4.580406033222e-10       4.231888326755e-11      -3.091239171770e-14 
   17       1.170045123626e-10       4.190971789963e-16       1.466477508687e-13       1.271873218091e-17       4.140052882648e-10       3.853867637796e-11      -1.994035417923e-14 
   18       1.185528650266e-10       4.911143353976e-16       1.551403462621e-13       1.422615506011e-17       3.757781193284e-10       3.524204930376e-11      -9.473486470856e-15 
   19       1.201856902782e-10       5.844840878773e-16       1.640479098239e-13       1.581933017650e-17       3.427576088780e-10       3.238161914591e-11      -2.117225332284e-15 
   20       1.218957456015e-10       6.972063778673e-16       1.735111916721e-13       1.749844561189e-17       3.136699632648e-10       2.984164630045e-11       4.175941935830e-16 
   21       1.236845154151e-10       8.286384278597e-16       1.834830451236e-13       1.926367888378e-17       2.880595973689e-10       2.757619232866e-11      -1.297437839768e-15 
   22       1.255259387096e-10       9.782893411447e-16       1.937766289668e-13       2.111519391415e-17       2.653159801720e-10       2.552893713911e-11      -5.508537153212e-15 
   23       1.274248925232e-10       1.146358377708e-15       2.040647188650e-13       2.305314499936e-17       2.451273738048e-10       2.369183286292e-11      -1.047329044330e-14 
   24       1.293750221337e-10       1.333076962442e-15       2.139326076895e-13       2.507767372643e-17       2.270277356012e-10       2.204890412052e-11      -1.433761619087e-14 
   25       1.313782743693e-10       1.538530992051e-15       2.230925867909e-13       2.718891460982e-17       2.108047948652e-10       2.057945715976e-11      -1.626964172183e-14 
   26       1.334233953822e-10       1.762994870214e-15       2.312982158949e-13       2.938699137417e-17       1.961655835202e-10       1.924687748296e-11      -1.593271823160e-14 
   27       1.355053679132e-10       2.008482814164e-15       2.384324605596e-13       3.167202235289e-17       1.829349093967e-10       1.803373037802e-11      -1.394319146523e-14 
   28       1.376124732956e-10       2.277526619564e-15       2.444497467363e-13       3.404411794846e-17       1.708850673241e-10       1.692095743498e-11      -1.130852062220e-14 
   29       1.397538720162e-10       2.571532472675e-15       2.494199737483e-13       3.650338935482e-17       1.599548362421e-10       1.590661819731e-11      -8.694758542489e-15 
   30       1.419340138437e-10       2.891534773860e-15       2.534889445851e-13       3.904994132086e-17       1.500271910568e-10       1.498505495151e-11      -6.780542168001e-15 
   31       1.441468799071e-10       3.238533310170e-15       2.568047247429e-13       4.168387211337e-17       1.409000254622e-10       1.414192571206e-11      -6.191205067835e-15 
   32       1.463954793447e-10       3.613586085149e-15       2.593111733258e-13       4.440528439382e-17       1.325263963451e-10       1.336876919450e-11      -6.736454221790e-15 
   33       1.486769797720e-10       4.017742996640e-15       2.608758531407e-13       4.721427824462e-17       1.248472354287e-10       1.265215031055e-11      -7.873584334409e-15 
   34       1.509816483921e-10       4.451970077135e-15       2.613509259502e-13       5.011094983062e-17       1.177552550154e-10       1.197531555558e-11      -9.000885557780e-15 
   35       1.533116879457e-10       4.916984538548e-15       2.606068948140e-13       5.309539659401e-17       1.112142858185e-10       1.134023302495e-11      -9.838829259633e-15 
   36       1.556672583986e-10       5.413348989749e-15       2.585082899417e-13       5.616771402170e-17       1.051719880906e-10       1.075250703051e-11      -1.017380371765e-14 
   37       1.580442510632e-10       5.941597647182e-15       2.549320409033e-13       5.932799375347e-17       9.954987959844e-11       1.021476178473e-11      -9.836336713224e-15 
   38       1.604466896695e-10       6.502550625453e-15       2.498649817579e-13       6.257632136628e-17       9.433352716006e-11       9.724831397339e-12      -8.978503621323e-15 
   39       1.628772801242e-10       7.097097192797e-15       2.433392767791e-13       6.591277800320e-17       8.950646476242e-11       9.276441090285e-12      -7.891990645146e-15 
   40       1.653333638247e-10       7.726110344850e-15       2.354079263747e-13       6.933744105162e-17       8.502275612790e-11       8.859272365757e-12      -6.939748249678e-15 
   41       1.678096980612e-10       8.390401622923e-15       2.261236652839e-13       7.285038114312e-17       8.082301817837e-11       8.462103663103e-12      -6.460896703150e-15 
   42       1.703092518049e-10       9.090570344695e-15       2.154643824981e-13       7.645165182224e-17       7.689494614971e-11       8.084248792974e-12      -6.437156595299e-15 
   43       1.728349678769e-10       9.827103566939e-15       2.033855325976e-13       8.014129662400e-17       7.322816350436e-11       7.727291174502e-12      -6.725570627924e-15 
   44       1.753863857584e-10       1.060041201845e-14       1.898401171125e-13       8.391935170582e-17       6.979605826741e-11       7.391849960725e-12      -7.146610814104e-15 
   45       1.779612327384e-10       1.141087085795e-14       1.747800161050e-13       8.778584200712e-17       6.656530134219e-11       7.077708952830e-12      -7.523939201930e-15 
   46       1.805615623095e-10       1.225896606347e-14       1.581611332876e-13       9.174076870820e-17       6.353084125389e-11       6.784458692635e-12      -7.823190604283e-15 
   47       1.831888750921e-10       1.314518488848e-14       1.399393013706e-13       9.578411776997e-17       6.068917237125e-11       6.510895181889e-12      -8.050836136750e-15 
   48       1.858421270183e-10       1.406997338839e-14       1.200686088023e-13       9.991586294913e-17       5.802777930170e-11       6.254744442385e-12      -8.215920449291e-15 
   49       1.885175019530e-10       1.503373493443e-14       9.850120624891e-14       1.041359654374e-16       5.552446672565e-11       6.012586201014e-12      -8.330221770755e-15 
   50       1.912105722826e-10       1.603680230837e-14       7.519246974994e-14       1.084443734800e-16       5.315405005993e-11       5.780829868068e-12      -8.408711431209e-15 
   51       1.939239995893e-10       1.707934850427e-14       5.011859136200e-14       1.128410219467e-16       5.091212324478e-11       5.559131835875e-12      -8.470708172781e-15 
   52       1.966615311993e-10       1.816144914611e-14       2.326342878508e-14       1.173258320208e-16       4.879658403147e-11       5.347773852186e-12      -8.539313810207e-15 
   53       1.994256826299e-10       1.928310412642e-14      -5.386376824326e-15       1.218987108558e-16       4.680052092627e-11       5.146665639140e-12      -8.641311144189e-15 
   54       2.022176225856e-10       2.044423487694e-14      -3.584134229446e-14       1.265595512143e-16       4.491188941671e-11       4.955318098002e-12      -8.807338098984e-15 
   55       2.050377188033e-10       2.164473078121e-14      -6.810932239760e-14       1.313082395843e-16       4.311719009740e-11       4.773079707774e-12      -9.062178058749e-15 
   56       2.078875978451e-10       2.288460816677e-14      -1.021962362323e-13       1.361446837204e-16       4.141431478400e-11       4.599975877048e-12      -9.392407313741e-15 
   57       2.107683955635e-10       2.416388602943e-14      -1.381054187198e-13       1.410687913109e-16       3.980232453466e-11       4.436031171165e-12      -9.771015560875e-15 
   58       2.136800537703e-10       2.548253955487e-14      -1.758373497025e-13       1.460804620676e-16       3.827756314624e-11       4.281008206040e-12      -1.016637919165e-14 
   59       2.166212309794e-10       2.684049930400e-14      -2.153896046779e-13       1.511795876945e-16       3.683348929875e-11       4.134391107206e-12      -1.054205034657e-14 
   60       2.195892131508e-10       2.823765039820e-14      -2.567568055328e-13       1.563660518563e-16       3.546050869979e-11       3.995368968855e-12      -1.085654596959e-14 
   61       2.225811737503e-10       2.967375401390e-14      -2.999310056310e-13       1.616397457804e-16       3.414864020984e-11       3.863062228707e-12      -1.107281914667e-14 
   62       2.255984863622e-10       3.114819311776e-14      -3.449030575362e-13       1.670006192276e-16       3.289659326822e-11       3.737298590148e-12      -1.118963462825e-14 
   63       2.286432261069e-10       3.266016795359e-14      -3.916614662635e-13       1.724486409586e-16       3.170443940292e-11       3.617982704540e-12      -1.121689360351e-14 
   64       2.317168602197e-10       3.420876548210e-14      -4.401919472342e-13       1.779837845654e-16       3.057088165306e-11       3.504859965505e-12      -1.116666722551e-14 
   65       2.348202016066e-10       3.579295610115e-14      -4.904773907926e-13       1.836060289356e-16       2.949317663346e-11       3.397507675505e-12      -1.105329287715e-14 
   66       2.379533624011e-10       3.741159036596e-14      -5.424978267212e-13       1.893153587172e-16       2.846705659910e-11       3.295326212422e-12      -1.089347043720e-14 
   67       2.411157075200e-10       3.906339570937e-14      -5.962303887568e-13       1.951117647831e-16       2.748665150968e-11       3.197530196132e-12      -1.070635854620e-14 
   68       2.443064626849e-10       4.074710798793e-14      -6.516508716691e-13       2.009952527987e-16       2.654605781156e-11       3.103349484773e-12      -1.050999454869e-14 
   69       2.475267853669e-10       4.246190440334e-14      -7.087388481839e-13       2.069658699023e-16       2.564458811746e-11       3.012699202071e-12      -1.030949677021e-14 
   70       2.507780319646e-10       4.420705281345e-14      -7.674735299019e-13       2.130236842900e-16       2.478245013085e-11       2.925630230238e-12      -1.010663366383e-14 
   71       2.540611112936e-10       4.598178483335e-14      -8.278322716262e-13       2.191687782513e-16       2.395915886847e-11       2.842127987951e-12      -9.903290823143e-15 
   72       2.573764548816e-10       4.778529600385e-14      -8.897905766082e-13       2.254012488404e-16       2.317350084040e-11       2.762108963426e-12      -9.701473224638e-15 
   73       2.607239872623e-10       4.961674595995e-14      -9.533221017945e-13       2.317212085484e-16       2.242349823010e-11       2.685417247475e-12      -9.503307470051e-15 
   74       2.641030962703e-10       5.147525859930e-14      -1.018398663073e-12       2.381287859750e-16       2.170637307450e-11       2.611821066581e-12      -9.311044028715e-15 
   75       2.675126033354e-10       5.335992225065e-14      -1.084990240519e-12       2.446241265003e-16       2.101851144397e-11       2.541009315961e-12      -9.127059479919e-15 
   76       2.709513487489e-10       5.526972619787e-14      -1.153064589216e-12       2.512073855068e-16       2.035636108368e-11       2.472673732723e-12      -8.953545443638e-15 
   77       2.744201363433e-10       5.720335651604e-14      -1.222585978187e-12       2.578787051334e-16       1.971939249537e-11       2.406780378698e-12      -8.791504927713e-15 
   78       2.779200911126e-10       5.915936313817e-14      -1.293516229965e-12       2.646382344834e-16       1.910761525414e-11       2.343341595103e-12      -8.641576183327e-15 
   79       2.814520588823e-10       6.113621907864e-14      -1.365815091820e-12       2.714861372088e-16       1.852067604120e-11       2.282333071201e-12      -8.504325665417e-15 
   80       2.850165892138e-10       6.313231929651e-14      -1.439440232920e-12       2.784225920292e-16       1.795784196522e-11       2.223692133487e-12      -8.380243850322e-15 
   81       2.886139183098e-10       6.514597955898e-14      -1.514347241489e-12       2.854477932509e-16       1.741798388383e-11       2.167316034879e-12      -8.269741053425e-15 
   82       2.922439519189e-10       6.717543530472e-14      -1.590489621965e-12       2.925619512862e-16       1.689955972498e-11       2.113060243900e-12      -8.173143246798e-15 
   83       2.959062482408e-10       6.921884050730e-14      -1.667818792156e-12       2.997652931722e-16       1.640059780843e-11       2.060736733864e-12      -8.090687876849e-15 
   84       2.996003033505e-10       7.127433680063e-14      -1.746284606994e-12       3.070580595750e-16       1.591917635114e-11       2.010161003245e-12      -8.022250205868e-15 
   85       3.033264992838e-10       7.334027651204e-14      -1.825837035773e-12       3.144404940944e-16       1.545498985195e-11       1.961305840515e-12      -7.966479372615e-15 
   86       3.070852825123e-10       7.541503469135e-14      -1.906424759038e-12       3.219128531297e-16       1.500801300830e-11       1.914170032088e-12      -7.921510774820e-15 
   87       3.108768635649e-10       7.749694217979e-14      -1.987994672644e-12       3.294754096900e-16       1.457801940378e-11       1.868731018918e-12      -7.885214228177e-15 
   88       3.147012050166e-10       7.958428565427e-14      -2.070491893756e-12       3.371284538541e-16       1.416457316875e-11       1.824944004694e-12      -7.855185254975e-15 
   89       3.185580094783e-10       8.167530767164e-14      -2.153859766867e-12       3.448722932309e-16       1.376702064103e-11       1.782741064046e-12      -7.828736372735e-15 
   90       3.224467075861e-10       8.376820671295e-14      -2.238039869797e-12       3.527072534187e-16       1.338448202650e-11       1.742030250733e-12      -7.802888382842e-15 
   91       3.263664459903e-10       8.586113722769e-14      -2.322972019708e-12       3.606336784659e-16       1.301584305981e-11       1.702694705848e-12      -7.774361659183e-15 
   92       3.303160753449e-10       8.795220967807e-14      -2.408594279110e-12       3.686519313304e-16       1.265974666502e-11       1.664591766011e-12      -7.739567436781e-15 
   93       3.342944990558e-10       9.003951873629e-14      -2.494843829802e-12       3.767624022895e-16       1.231491513982e-11       1.627587724943e-12      -7.695433844131e-15 
   94       3.383018056122e-10       9.212123263131e-14      -2.581659731980e-12       3.849655346162e-16       1.198119025129e-11       1.591670035697e-12      -7.642045034749e-15 
   95       3.423382851435e-10       9.419551738424e-14      -2.668980593142e-12       3.932618036328e-16       1.165863487985e-11       1.556850413318e-12      -7.580384721672e-15 
   96       3.464040768712e-10       9.626051027751e-14      -2.756743754809e-12       4.016517096673e-16       1.134721268267e-11       1.523130288081e-12      -7.511539510816e-15 
   97       3.504991620502e-10       9.831432028566e-14      -2.844885310452e-12       4.101357786220e-16       1.104678429130e-11       1.490500403102e-12      -7.436701648003e-15 
   98       3.546233569098e-10       1.003550285060e-13      -2.933340123412e-12       4.187145625428e-16       1.075710350942e-11       1.458940411937e-12      -7.357171765983e-15 
   99       3.587763055958e-10       1.023806885894e-13      -3.022041844824e-12       4.273886401886e-16       1.047781351048e-11       1.428418476191e-12      -7.274361631461e-15 
  100       3.629574731112e-10       1.043893271708e-13      -3.110922931541e-12       4.361586175999e-16       1.020844303546e-11       1.398890863127e-12      -7.189796892120e-15 
  101       3.671661382580e-10       1.063789443002e-13      -3.199914664051e-12       4.450251286682e-16       9.948402590519e-12       1.370301543264e-12      -7.105119823649e-15 
  102       3.714013865784e-10       1.083475138732e-13      -3.288947164406e-12       4.539888357049e-16       9.696980644727e-12       1.342581787988e-12      -7.022092076764e-15 
  103       3.756621032963e-10       1.102929840618e-13      -3.377949414141e-12       4.630504300108e-16       9.453339827747e-12       1.315649767157e-12      -6.942597424236e-15 
  104       3.799472078226e-10       1.122133288820e-13      -3.466849836207e-12       4.722106120592e-16       9.216706869709e-12       1.289429808032e-12      -6.868237572374e-15 
  105       3.842564085523e-10       1.141067099034e-13      -3.555578091693e-12       4.814700277726e-16       8.986979831915e-12       1.263914001673e-12      -6.799051495957e-15 
  106       3.885895373446e-10       1.159713372891e-13      -3.644063560356e-12       4.908293246591e-16       8.764196197441e-12       1.239108207235e-12      -6.734627419996e-15 
  107       3.929463127136e-10       1.178054215898e-13      -3.732234822118e-12       5.002891717701e-16       8.548344800867e-12       1.215012949705e-12      -6.674492602708e-15 
