# dimensionless total lensed [l(l+1)/2pi] C_l's
# for l=2 to 4500, i.e. number of multipoles equal to 4499
#
# -> if you prefer output in CAMB/HealPix/LensPix units/order, set 'format' to 'camb' in input file
# -> if you don't want to see such a header, set 'headers' to 'no' in input file
# -> for CMB lensing (phi), these are C_l^phi-phi for the lensing potential.
#    Remember the conversion factors:
#    C_l^dd (deflection) = l(l+1) C_l^phi-phi
#    C_l^gg (shear/convergence) = 1/4 (l(l+1))^2 C_l^phi-phi
#
# 1:l     2:TT                     3:EE                     4:TE                     5:BB                     6:phiphi                 7:TPhi                   8:Ephi               
    2       1.444904467560e-10       4.328538735696e-15       3.673348016800e-13       2.558233030739e-19       8.640435320204e-09       4.725968645399e-10      -1.919672163383e-12 
    3       1.367216600611e-10       5.548202522485e-15       4.124597061814e-13       5.112461383709e-19       5.306750140959e-09       3.354211921780e-10      -1.453952499908e-12 
    4       1.293584127239e-10       4.801161431923e-15       3.855969148306e-13       8.516949544323e-19       3.691188373299e-09       2.540977175121e-10      -9.519300892156e-13 
    5       1.238394552264e-10       3.205097067381e-15       3.283725957046e-13       1.277369985559e-18       2.756794012009e-09       2.006708252199e-10      -5.292678518594e-13 
    6       1.200422836042e-10       1.794107154986e-15       2.645357936238e-13       1.788461742177e-18       2.154561481285e-09       1.632542056190e-10      -2.178255163675e-13 
    7       1.176293679759e-10       9.712889754294e-16       2.078203611679e-13       2.385116916559e-18       1.739087409335e-09       1.358859896862e-10      -1.909211882417e-14 
    8       1.161869063361e-10       6.283795197656e-16       1.642278045468e-13       3.067476729745e-18       1.437832159831e-09       1.151389016803e-10       8.241872197041e-14 
    9       1.155009968021e-10       5.058667525781e-16       1.350461246459e-13       3.835708572326e-18       1.210908523864e-09       9.894544251999e-11       1.109371727305e-13 
   10       1.153788539271e-10       4.324646102407e-16       1.188562910974e-13       4.690006453433e-18       1.034932495398e-09       8.606894978884e-11       9.333732143056e-14 
   11       1.156677081642e-10       3.647495027939e-16       1.129468292633e-13       5.630577627281e-18       8.723873510011e-10       7.597961754951e-11       5.461570696049e-14 
   12       1.163370876827e-10       3.189575301016e-16       1.141850142985e-13       6.657639072432e-18       7.623841689704e-10       6.734852634897e-11       1.331214131942e-14 
   13       1.172386398748e-10       3.068083017903e-16       1.197046079377e-13       7.771413681427e-18       6.720723052982e-10       6.013008740493e-11      -1.846213107950e-14 
   14       1.183026324281e-10       3.202008334171e-16       1.274325294524e-13       8.972136601404e-18       5.969159446778e-10       5.388286659758e-11      -3.582010419485e-14 
   15       1.195604839918e-10       3.468678604085e-16       1.360315623920e-13       1.026004898507e-17       5.336480990380e-10       4.861918416067e-11      -3.907084905015e-14 
   16       1.210028312776e-10       3.841473522959e-16       1.447627840619e-13       1.163539248915e-17       4.798500267434e-10       4.415309274483e-11      -3.229870982556e-14 
   17       1.225111067289e-10       4.375947625484e-16       1.535313043302e-13       1.309840740867e-17       4.336947401860e-10       4.027435848062e-11      -2.093929515198e-14 
   18       1.241299920045e-10       5.127959945394e-16       1.624678100447e-13       1.464933265600e-17       3.936284801164e-10       3.680363609737e-11      -1.011340556507e-14 
   19       1.258736164315e-10       6.102222128892e-16       1.717772362757e-13       1.628840683303e-17       3.590177290306e-10       3.373128972338e-11      -2.491110515065e-15 
   20       1.276710661605e-10       7.279594342394e-16       1.816519152690e-13       1.801586509311e-17       3.285311106584e-10       3.102956302639e-11       2.023464983402e-16 
   21       1.295354669784e-10       8.652598668101e-16       1.920625605731e-13       1.983193980300e-17       3.016909340385e-10       2.867407890211e-11      -1.461812425839e-15 
   22       1.314726359449e-10       1.021472420112e-15       2.028274325888e-13       2.173685765453e-17       2.778558118342e-10       2.659750032184e-11      -5.712788269210e-15 
   23       1.334729927798e-10       1.196905579668e-15       2.136155981226e-13       2.373083937953e-17       2.566985606079e-10       2.474677355265e-11      -1.076055275741e-14 
   24       1.355026235219e-10       1.391964273655e-15       2.239956372885e-13       2.581409759410e-17       2.377306777034e-10       2.305202642738e-11      -1.469677880934e-14 
   25       1.375725336781e-10       1.606697665477e-15       2.336262254382e-13       2.798683716386e-17       2.207298400045e-10       2.149904465140e-11      -1.670483998198e-14 
   26       1.396916851173e-10       1.841280206261e-15       2.422067721216e-13       3.024925282102e-17       2.053892467263e-10       2.007923193359e-11      -1.646980061623e-14 
   27       1.418616490871e-10       2.097752417615e-15       2.496607374896e-13       3.260152897142e-17       1.915253463019e-10       1.879590470450e-11      -1.453349743084e-14 
   28       1.440714322288e-10       2.378729078136e-15       2.560060982330e-13       3.504383832810e-17       1.788994744168e-10       1.764493977880e-11      -1.181553042570e-14 
   29       1.463252508836e-10       2.685762007102e-15       2.612984706421e-13       3.757634423056e-17       1.674472620972e-10       1.661276316001e-11      -9.031991050215e-15 
   30       1.486185761507e-10       3.020073637658e-15       2.656380105581e-13       4.019919688305e-17       1.570457724119e-10       1.566912385556e-11      -6.974367837282e-15 
   31       1.509359616958e-10       3.382818128691e-15       2.691282565425e-13       4.291253283155e-17       1.474829330660e-10       1.477670931766e-11      -6.376065317811e-15 
   32       1.532811162661e-10       3.774933416177e-15       2.717171313140e-13       4.571647997819e-17       1.387095810912e-10       1.393779964983e-11      -7.019166382196e-15 
   33       1.556553582364e-10       4.197219113401e-15       2.732955979881e-13       4.861115263291e-17       1.306639853488e-10       1.316373770581e-11      -8.278048192113e-15 
   34       1.580532319386e-10       4.650418452012e-15       2.737429152712e-13       5.159665065824e-17       1.232338962917e-10       1.246061182415e-11      -9.469599140102e-15 
   35       1.604791569017e-10       5.135403694448e-15       2.729466145403e-13       5.467306460231e-17       1.163813999986e-10       1.182304364449e-11      -1.032039920625e-14 
   36       1.629348541266e-10       5.653046145151e-15       2.707876171177e-13       5.784047081845e-17       1.100515812717e-10       1.123721092310e-11      -1.065468021364e-14 
   37       1.654173191739e-10       6.204182817206e-15       2.671532639502e-13       6.109893155737e-17       1.041621347950e-10       1.068682082611e-11      -1.033831709924e-14 
   38       1.679300174417e-10       6.789684026763e-15       2.620034100489e-13       6.444850289499e-17       9.869790366643e-11       1.017018887210e-11      -9.514096585390e-15 
   39       1.704741652302e-10       7.410402877908e-15       2.553263372971e-13       6.788922817717e-17       9.364161554233e-11       9.688189547581e-12      -8.448017187016e-15 
   40       1.730449353399e-10       8.067153954543e-15       2.471219137896e-13       7.142113504599e-17       8.894512505101e-11       9.239409991054e-12      -7.471776271792e-15 
   41       1.756348848044e-10       8.760699723154e-15       2.373976289789e-13       7.504423798859e-17       8.454620155550e-11       8.820863174173e-12      -6.899663963036e-15 
   42       1.782470783149e-10       9.491710487432e-15       2.261535385233e-13       7.875854858300e-17       8.043194007402e-11       8.430921507370e-12      -6.736483536374e-15 
   43       1.808851879081e-10       1.026078714760e-14       2.133935445515e-13       8.256406746636e-17       7.659145919246e-11       8.066977746578e-12      -6.881707737133e-15 
   44       1.835494722574e-10       1.106846792124e-14       1.991299506155e-13       8.646078097065e-17       7.299687191205e-11       7.724452396425e-12      -7.206910639154e-15 
   45       1.862383136899e-10       1.191524068751e-14       1.833682015214e-13       9.044866469154e-17       6.961325622447e-11       7.398269519923e-12      -7.581492647367e-15 
   46       1.889541906502e-10       1.280159219010e-14       1.660548486946e-13       9.452769651666e-17       6.643531211308e-11       7.088164674776e-12      -7.963173691898e-15 
   47       1.916989035747e-10       1.372796793573e-14       1.471146159435e-13       9.869784673472e-17       6.345936034304e-11       6.794708037570e-12      -8.331560373204e-15 
   48       1.944716170374e-10       1.469475549604e-14       1.264641153965e-13       1.029590741508e-16       6.067228570907e-11       6.517760724033e-12      -8.662837455241e-15 
   49       1.972686229523e-10       1.570228211140e-14       1.040112941038e-13       1.073113258723e-16       5.805083522941e-11       6.256418062439e-12      -8.929590904647e-15 
   50       2.000854481090e-10       1.675079721457e-14       7.967286954659e-14       1.117545418603e-16       5.556862549071e-11       6.009385510523e-12      -9.110510900477e-15 
   51       2.029244005649e-10       1.784041996846e-14       5.343349941730e-14       1.162886705388e-16       5.322103522320e-11       5.776358305303e-12      -9.223016375626e-15 
   52       2.057886623159e-10       1.897117334620e-14       2.530171622284e-14       1.209136570522e-16       5.100585641891e-11       5.556918248217e-12      -9.299180150766e-15 
   53       2.086800005159e-10       2.014299493448e-14      -4.706371701253e-15       1.256294388798e-16       4.891584475121e-11       5.350098288212e-12      -9.376904093426e-15 
   54       2.115986410001e-10       2.135573382777e-14      -3.656678705321e-14       1.304359458456e-16       4.693838055236e-11       5.154346154851e-12      -9.500207096955e-15 
   55       2.145441195686e-10       2.260922185869e-14      -7.025680941256e-14       1.353331052391e-16       4.505932115753e-11       4.967979401997e-12      -9.706998259010e-15 
   56       2.175183732271e-10       2.390351512586e-14      -1.057856791261e-13       1.403208586432e-16       4.327645528863e-11       4.790766228476e-12      -9.988179789780e-15 
   57       2.205231953434e-10       2.523870702670e-14      -1.431710074730e-13       1.453991493043e-16       4.158879720382e-11       4.622673667729e-12      -1.031888880597e-14 
   58       2.235592387100e-10       2.661485897300e-14      -1.824300981837e-13       1.505679175930e-16       3.999251627023e-11       4.463393737849e-12      -1.066992673283e-14 
   59       2.266259271621e-10       2.803200018138e-14      -2.235800212760e-13       1.558271012129e-16       3.848076124142e-11       4.312326220555e-12      -1.100755969347e-14 
   60       2.297213671959e-10       2.949012746363e-14      -2.666376868908e-13       1.611766354102e-16       3.704348453503e-11       4.168561440157e-12      -1.129331889822e-14 
   61       2.328434313847e-10       3.098909855331e-14      -3.116151240630e-13       1.666164593156e-16       3.567023342926e-11       4.031143310911e-12      -1.149253989435e-14 
   62       2.359934927485e-10       3.252828457988e-14      -3.585039116392e-13       1.721465361606e-16       3.435965330570e-11       3.899966434141e-12      -1.160267169663e-14 
   63       2.391733755833e-10       3.410683886171e-14      -4.072873678312e-13       1.777668379911e-16       3.311181539650e-11       3.775050721572e-12      -1.163099665056e-14 
   64       2.423842074405e-10       3.572379296988e-14      -4.579449601501e-13       1.834773403304e-16       3.192535812614e-11       3.656270732233e-12      -1.158652841494e-14 
   65       2.456263679256e-10       3.737805314064e-14      -5.104522270982e-13       1.892780225831e-16       3.079740552704e-11       3.543347344135e-12      -1.148008962862e-14 
   66       2.488994374962e-10       3.906839668770e-14      -5.647806998612e-13       1.951688684390e-16       2.972348565527e-11       3.435839425942e-12      -1.132438957731e-14 
   67       2.522021462603e-10       4.079346841466e-14      -6.208978240002e-13       2.011498662771e-16       2.869744900612e-11       3.333135508643e-12      -1.113410186035e-14 
   68       2.555331728863e-10       4.255192262663e-14      -6.787705942207e-13       2.072210149732e-16       2.771311125716e-11       3.234613829761e-12      -1.092350536872e-14 
   69       2.588938437647e-10       4.434289059915e-14      -7.383774889604e-13       2.133823417892e-16       2.676975039017e-11       3.140178739697e-12      -1.069867854724e-14 
   70       2.622858912992e-10       4.616560182101e-14      -7.996988244982e-13       2.196338888509e-16       2.586758198691e-11       3.049818523461e-12      -1.046385574129e-14 
   71       2.657106232549e-10       4.801924690961e-14      -8.627132722013e-13       2.259757085966e-16       2.500609664386e-11       2.963442694962e-12      -1.022373901423e-14 
   72       2.691688932981e-10       4.990297774712e-14      -9.273978751806e-13       2.324078643193e-16       2.418402248832e-11       2.880877974886e-12      -9.983513494790e-15 
   73       2.726610715366e-10       5.181590761661e-14      -9.937280649468e-13       2.389304307085e-16       2.339928769442e-11       2.801864268575e-12      -9.748862724440e-15 
   74       2.761870150598e-10       5.375711133816e-14      -1.061677678065e-12       2.455434943922e-16       2.264898299928e-11       2.726050643897e-12      -9.525984004748e-15 
   75       2.797460384792e-10       5.572562540508e-14      -1.131218972813e-12       2.522471544792e-16       2.192932421906e-11       2.652991309125e-12      -9.321603744758e-15 
   76       2.833373791772e-10       5.772038386470e-14      -1.202321125939e-12       2.590415268279e-16       2.123659177230e-11       2.582259543221e-12      -9.141535607829e-15 
   77       2.869617561227e-10       5.974001216134e-14      -1.274945369657e-12       2.659267565550e-16       2.057022990353e-11       2.513822363026e-12      -8.986017478350e-15 
   78       2.906200431113e-10       6.178299577232e-14      -1.349048994003e-12       2.729030088029e-16       1.993024714305e-11       2.447727188472e-12      -8.853548100867e-15 
   79       2.943127802712e-10       6.384773996579e-14      -1.424586773779e-12       2.799704658238e-16       1.931627226981e-11       2.383988373856e-12      -8.742254546198e-15 
   80       2.980401547475e-10       6.593256861927e-14      -1.501510954041e-12       2.871293275980e-16       1.872753686183e-11       2.322585604414e-12      -8.649877677728e-15 
   81       3.018019813875e-10       6.803572303818e-14      -1.579771235592e-12       2.943798124526e-16       1.816285784660e-11       2.263462292914e-12      -8.573757617701e-15 
   82       3.055976834245e-10       7.015536077439e-14      -1.659314760469e-12       3.017221576796e-16       1.762062005150e-11       2.206523976236e-12      -8.510819213518e-15 
   83       3.094262731628e-10       7.228955444472e-14      -1.740086097430e-12       3.091566201543e-16       1.709875875421e-11       2.151636711962e-12      -8.457557504023e-15 
   84       3.132867685537e-10       7.443636449480e-14      -1.822028993030e-12       3.166834771840e-16       1.659526159093e-11       2.098662230592e-12      -8.410548885662e-15 
   85       3.171795645801e-10       7.659407393810e-14      -1.905091990156e-12       3.243030278587e-16       1.610980810572e-11       2.047573600103e-12      -8.368113811646e-15 
   86       3.211052548617e-10       7.876099054643e-14      -1.989223718651e-12       3.320155930595e-16       1.564237127451e-11       1.998355885495e-12      -8.328904367847e-15 
   87       3.250642041644e-10       8.093537642505e-14      -2.074371227486e-12       3.398215158608e-16       1.519271372125e-11       1.950970126868e-12      -8.291397466086e-15 
   88       3.290565364112e-10       8.311544807395e-14      -2.160479999919e-12       3.477211621539e-16       1.476037899705e-11       1.905352353746e-12      -8.253889145716e-15 
   89       3.330821226921e-10       8.529937644921e-14      -2.247493968661e-12       3.557149212682e-16       1.434468285927e-11       1.861412599408e-12      -8.214488875211e-15 
   90       3.371405692753e-10       8.748528702429e-14      -2.335355531037e-12       3.638032065943e-16       1.394470455064e-11       1.819033915211e-12      -8.171113853750e-15 
   91       3.412312056173e-10       8.967125985134e-14      -2.424005564150e-12       3.719864562059e-16       1.355927807839e-11       1.778071384918e-12      -8.121483312801e-15 
   92       3.453530723733e-10       9.185532962253e-14      -2.513383440042e-12       3.802651334820e-16       1.318698349332e-11       1.738351139027e-12      -8.063112817707e-15 
   93       3.495052397814e-10       9.403551342485e-14      -2.603427045602e-12       3.886397222085e-16       1.282648382836e-11       1.699712528175e-12      -7.993994207493e-15 
   94       3.536878436307e-10       9.620989864635e-14      -2.694072812772e-12       3.971107096872e-16       1.247761282410e-11       1.662144039918e-12      -7.914764770366e-15 
   95       3.579011836604e-10       9.837656846591e-14      -2.785255720936e-12       4.056786022247e-16       1.214043543439e-11       1.625666096550e-12      -7.826855294598e-15 
   96       3.621453997146e-10       1.005335757733e-13      -2.876909307612e-12       4.143439309667e-16       1.181491282071e-11       1.590289329474e-12      -7.731837162767e-15 
   97       3.664204642882e-10       1.026789436105e-13      -2.968965683672e-12       4.231072524446e-16       1.150089837610e-11       1.556014185965e-12      -7.631426064990e-15 
   98       3.707261750721e-10       1.048106656136e-13      -3.061355548576e-12       4.319691491218e-16       1.119813374908e-11       1.522830535936e-12      -7.527485712148e-15 
   99       3.750621474988e-10       1.069267064536e-13      -3.154008205594e-12       4.409302299401e-16       1.090624486756e-11       1.490717278700e-12      -7.422031549118e-15 
  100       3.794278072879e-10       1.090250022784e-13      -3.246851577039e-12       4.499911308668e-16       1.062473796278e-11       1.459641949737e-12      -7.317234467997e-15 
  101       3.838223829915e-10       1.111034611540e-13      -3.339812219492e-12       4.591525154403e-16       1.035299559324e-11       1.429560327460e-12      -7.215424521335e-15 
  102       3.882448985397e-10       1.131599635061e-13      -3.432815339032e-12       4.684150753177e-16       1.009027266857e-11       1.400416039975e-12      -7.119094635363e-15 
  103       3.926941657862e-10       1.151923625615e-13      -3.525784806460e-12       4.777795308205e-16       9.835692473533e-12       1.372140171850e-12      -7.030904323221e-15 
  104       3.971690327000e-10       1.171985391980e-13      -3.618644183405e-12       4.872466165935e-16       9.588445422022e-12       1.344667390703e-12      -6.953060521754e-15 
  105       4.016691821800e-10       1.191765739821e-13      -3.711319925702e-12       4.968170351980e-16       9.348424460696e-12       1.317987654965e-12      -6.885356848309e-15 
  106       4.061944277533e-10       1.211245993022e-13      -3.803738643147e-12       5.064914982394e-16       9.115668486168e-12       1.292100790496e-12      -6.826875165596e-15 
  107       4.107444629766e-10       1.230407480625e-13      -3.895826153280e-12       5.162707410733e-16       8.890165552519e-12       1.267000385361e-12      -6.776581712002e-15 
