# dimensionless DLM: total delensed [l(l+1)/2pi] C_l's
# for l=2 to 4500, i.e. number of multipoles equal to 4499
#
# -> if you prefer output in CAMB/HealPix/LensPix units/order, set 'format' to 'camb' in input file
# -> if you don't want to see such a header, set 'headers' to 'no' in input file
# -> for CMB lensing (phi), these are C_l^phi-phi for the lensing potential.
#    Remember the conversion factors:
#    C_l^dd (deflection) = l(l+1) C_l^phi-phi
#    C_l^gg (shear/convergence) = 1/4 (l(l+1))^2 C_l^phi-phi
#
# 1:l     2:TT                     3:EE                     4:TE                     5:BB                     6:phiphi                 7:TPhi                   8:Ephi               
    2       1.444898183460e-10       4.328348379381e-15       3.673348004124e-13       6.546737791278e-20       8.640435320204e-09       4.725968645399e-10       9.549296585514e-01 
    3       1.367204017550e-10       5.547821729144e-15       4.124597004739e-13       1.304565950740e-19       5.306750140959e-09       3.354211921780e-10       1.909859317103e+00 
    4       1.293563122863e-10       4.800526593756e-15       3.855968983867e-13       2.168752297300e-19       3.691188373299e-09       2.540977175121e-10       3.183098861838e+00 
    5       1.238362983757e-10       3.204144460264e-15       3.283725583055e-13       3.248268933730e-19       2.756794012009e-09       2.006708252199e-10       4.774648292757e+00 
    6       1.200378534329e-10       1.792772902893e-15       2.645357200942e-13       4.543867684861e-19       2.154561481285e-09       1.632542056190e-10       6.684507609860e+00 
    7       1.176234442215e-10       9.695090106636e-16       2.078202310288e-13       6.055698129098e-19       1.739087409335e-09       1.358859896862e-10       8.912676813146e+00 
    8       1.161793233660e-10       6.260897436410e-16       1.642276477216e-13       7.783666184958e-19       1.437832159831e-09       1.151389016803e-10       1.145915590262e+01 
    9       1.154942097068e-10       5.030121392329e-16       1.350485188369e-13       9.727891684965e-19       1.210908523864e-09       9.894544251999e-11       1.432394487827e+01 
   10       1.153706230810e-10       4.289708822981e-16       1.188587122737e-13       1.188786460691e-18       1.034932495398e-09       8.606894978884e-11       1.750704374011e+01 
   11       1.156578510303e-10       3.605508691861e-16       1.129493328671e-13       1.426367086652e-18       8.723873510011e-10       7.597961754951e-11       2.100845248813e+01 
   12       1.163254857667e-10       3.139887244611e-16       1.141877693472e-13       1.685524125499e-18       7.623841689704e-10       6.734852634897e-11       2.482817112234e+01 
   13       1.172251751503e-10       3.010044421980e-16       1.197078726479e-13       1.966258336660e-18       6.720723052982e-10       6.013008740493e-11       2.896619964272e+01 
   14       1.182871884519e-10       3.134966924761e-16       1.274366050124e-13       2.268575602225e-18       5.969159446778e-10       5.388286659758e-11       3.342253804930e+01 
   15       1.195429506207e-10       3.391974618352e-16       1.360367307443e-13       2.592484311504e-18       5.336480990380e-10       4.861918416067e-11       3.819718634205e+01 
   16       1.209831033968e-10       3.754442594725e-16       1.447693387037e-13       2.937989519168e-18       4.798500267434e-10       4.415309274483e-11       4.329014452100e+01 
   17       1.224890755422e-10       4.277926145652e-16       1.535396219526e-13       3.305097442958e-18       4.336947401860e-10       4.027435848062e-11       4.870141258612e+01 
   18       1.241055566462e-10       5.018287477878e-16       1.624783564546e-13       3.693811951936e-18       3.936284801164e-10       3.680363609737e-11       5.443099053743e+01 
   19       1.258466791991e-10       5.980238187099e-16       1.717905248357e-13       4.104138432269e-18       3.590177290306e-10       3.373128972338e-11       6.047887837492e+01 
   20       1.276415299085e-10       7.144637083908e-16       1.816684892716e-13       4.536082939363e-18       3.285311106584e-10       3.102956302639e-11       6.684507609860e+01 
   21       1.295032380000e-10       8.504004364682e-16       1.920829954398e-13       4.989651296219e-18       3.016909340385e-10       2.867407890211e-11       7.352958370846e+01 
   22       1.314376243935e-10       1.005182700779e-15       2.028523282163e-13       5.464849083281e-18       2.778558118342e-10       2.659750032184e-11       8.053240120450e+01 
   23       1.334351095588e-10       1.179118858727e-15       2.136455595798e-13       5.961682033260e-18       2.566985606079e-10       2.474677355265e-11       8.785352858673e+01 
   24       1.354617794529e-10       1.372613718158e-15       2.240312582756e-13       6.480155697921e-18       2.377306777034e-10       2.305202642738e-11       9.549296585514e+01 
   25       1.375286429632e-10       1.585716230921e-15       2.336680754765e-13       7.020275466689e-18       2.207298400045e-10       2.149904465140e-11       1.034507130097e+02 
   26       1.396446663595e-10       1.818600674342e-15       2.422553903836e-13       7.582046375066e-18       2.053892467263e-10       2.007923193359e-11       1.117267700505e+02 
   27       1.418114237285e-10       2.073307787586e-15       2.497166619355e-13       8.165473171558e-18       1.915253463019e-10       1.879590470450e-11       1.203211369775e+02 
   28       1.440179238995e-10       2.352452730987e-15       2.560698775811e-13       8.770560210685e-18       1.788994744168e-10       1.764493977880e-11       1.292338137906e+02 
   29       1.462683849151e-10       2.657587627690e-15       2.613706814437e-13       9.397311765556e-18       1.674472620972e-10       1.661276316001e-11       1.384648004899e+02 
   30       1.485582792096e-10       2.989935242095e-15       2.657192667895e-13       1.004573166821e-17       1.570457724119e-10       1.566912385556e-11       1.480140970755e+02 
   31       1.508721616387e-10       3.350650120146e-15       2.692192079347e-13       1.071582326476e-17       1.474829330660e-10       1.477670931766e-11       1.578817035472e+02 
   32       1.532137426163e-10       3.740670582150e-15       2.718184323059e-13       1.140758987117e-17       1.387095810912e-10       1.393779964983e-11       1.680676199050e+02 
   33       1.555843422651e-10       4.160796664009e-15       2.734078947988e-13       1.212103437628e-17       1.306639853488e-10       1.316373770581e-11       1.785718461491e+02 
   34       1.579785067539e-10       4.611772084825e-15       2.738668379656e-13       1.285615916675e-17       1.232338962917e-10       1.246061182415e-11       1.893943822794e+02 
   35       1.604006581209e-10       5.094469691351e-15       2.730827613245e-13       1.361296649450e-17       1.163813999986e-10       1.182304364449e-11       2.005352282958e+02 
   36       1.628525201910e-10       5.609761453212e-15       2.709365428149e-13       1.439145814598e-17       1.100515812717e-10       1.123721092310e-11       2.119943841984e+02 
   37       1.653310912430e-10       6.158485129698e-15       2.673154765643e-13       1.519163543815e-17       1.041621347950e-10       1.068682082611e-11       2.237718499872e+02 
   38       1.678398383114e-10       6.741511883231e-15       2.621793900006e-13       1.601349971173e-17       9.869790366643e-11       1.017018887210e-11       2.358676256622e+02 
   39       1.703799789062e-10       7.359695757159e-15       2.555165411424e-13       1.685705192810e-17       9.364161554233e-11       9.688189547581e-12       2.482817112234e+02 
   40       1.729466868636e-10       8.013852367011e-15       2.473267718625e-13       1.772229248780e-17       8.894512505101e-11       9.239409991054e-12       2.610141066707e+02 
   41       1.755325203555e-10       8.704745293925e-15       2.376175446188e-13       1.860922135100e-17       8.454620155550e-11       8.820863174173e-12       2.740648120042e+02 
   42       1.781405462718e-10       9.433045999149e-15       2.263888926800e-13       1.951783853898e-17       8.043194007402e-11       8.430921507370e-12       2.874338272240e+02 
   43       1.807744392507e-10       1.019935661633e-14       2.136446967594e-13       2.044814373084e-17       7.659145919246e-11       8.066977746578e-12       3.011211523299e+02 
   44       1.834344607242e-10       1.100421668664e-14       1.993972386376e-13       2.140013609119e-17       7.299687191205e-11       7.724452396425e-12       3.151267873220e+02 
   45       1.861189956888e-10       1.184811550111e-14       1.836519312333e-13       2.237381440114e-17       6.961325622447e-11       7.398269519923e-12       3.294507322002e+02 
   46       1.888305243123e-10       1.273154129115e-14       1.663552509627e-13       2.336917756330e-17       6.643531211308e-11       7.088164674776e-12       3.440929869647e+02 
   47       1.915708484298e-10       1.365494114024e-14       1.474318268173e-13       2.438622420051e-17       6.345936034304e-11       6.794708037570e-12       3.590535516153e+02 
   48       1.943391339243e-10       1.461870429231e-14       1.267981648566e-13       2.542495249202e-17       6.067228570907e-11       6.517760724033e-12       3.743324261521e+02 
   49       1.971316739259e-10       1.562315975791e-14       1.043620943452e-13       2.648536015484e-17       5.805083522941e-11       6.256418062439e-12       3.899296105751e+02 
   50       1.999439966120e-10       1.666855879805e-14       8.004021339778e-14       2.756744459052e-17       5.556862549071e-11       6.009385510523e-12       4.058451048843e+02 
   51       2.027784124808e-10       1.775502232404e-14       5.381709348809e-14       2.867120341544e-17       5.322103522320e-11       5.776358305303e-12       4.220789090797e+02 
   52       2.056381063757e-10       1.888257508212e-14       2.570118794738e-14       2.979663404225e-17       5.100585641891e-11       5.556918248217e-12       4.386310231613e+02 
   53       2.085248484688e-10       2.005115649616e-14      -4.291476764272e-15       3.094373351645e-17       4.891584475121e-11       5.350098288212e-12       4.555014471290e+02 
   54       2.114388677944e-10       2.126061756227e-14      -3.613700788602e-14       3.211249850552e-17       4.693838055236e-11       5.154346154851e-12       4.726901809829e+02 
   55       2.143797033516e-10       2.251079212436e-14      -6.981277713393e-14       3.330292544164e-17       4.505932115753e-11       4.967979401997e-12       4.901972247230e+02 
   56       2.173492947278e-10       2.380173855008e-14      -1.053281408906e-13       3.451501101616e-17       4.327645528863e-11       4.790766228476e-12       5.080225783493e+02 
   57       2.203494377365e-10       2.513355265293e-14      -1.427008380563e-13       3.574875178892e-17       4.158879720382e-11       4.622673667729e-12       5.261662418618e+02 
   58       2.233807876600e-10       2.650629836841e-14      -1.819483071144e-13       3.700414404070e-17       3.999251627023e-11       4.463393737849e-12       5.446282152605e+02 
   59       2.264427708702e-10       2.792000754653e-14      -2.230877601258e-13       3.828118376835e-17       3.848076124142e-11       4.312326220555e-12       5.634084985453e+02 
   60       2.295334964493e-10       2.937467974434e-14      -2.661362567240e-13       3.957986667990e-17       3.704348453503e-11       4.168561440157e-12       5.825070917163e+02 
   61       2.326508396213e-10       3.087017538106e-14      -3.111059772518e-13       4.090018835795e-17       3.567023342926e-11       4.031143310911e-12       6.019239947735e+02 
   62       2.357961761683e-10       3.240586764792e-14      -3.579886349394e-13       4.224214480354e-17       3.435965330570e-11       3.899966434141e-12       6.216592077169e+02 
   63       2.389713332281e-10       3.398091174200e-14      -4.067676802542e-13       4.360573200630e-17       3.311181539650e-11       3.775050721572e-12       6.417127305465e+02 
   64       2.421774412646e-10       3.559434108921e-14      -4.574227162325e-13       4.499094578735e-17       3.192535812614e-11       3.656270732233e-12       6.620845632623e+02 
   65       2.454148828696e-10       3.724506375324e-14      -5.099294201469e-13       4.639778179982e-17       3.079740552704e-11       3.543347344135e-12       6.827747058642e+02 
   66       2.486832415639e-10       3.893185884459e-14      -5.642594651738e-13       4.782623552929e-17       2.972348565527e-11       3.435839425942e-12       7.037831583524e+02 
   67       2.519812505983e-10       4.065337292958e-14      -6.203804420601e-13       4.927630229426e-17       2.869744900612e-11       3.333135508643e-12       7.251099207267e+02 
   68       2.553075919250e-10       4.240826211378e-14      -6.782594949508e-13       5.074797738648e-17       2.771311125716e-11       3.234613829761e-12       7.467549929872e+02 
   69       2.586635955491e-10       4.419565975068e-14      -7.378752594550e-13       5.224125652392e-17       2.676975039017e-11       3.140178739697e-12       7.687183751339e+02 
   70       2.620509976743e-10       4.601479748751e-14      -7.992082139403e-13       5.375613549089e-17       2.586758198691e-11       3.049818523461e-12       7.910000671667e+02 
   71       2.654711100002e-10       4.786486810830e-14      -8.622371957618e-13       5.529261001016e-17       2.500609664386e-11       2.963442694962e-12       8.136000690858e+02 
   72       2.689247902670e-10       4.974502566855e-14      -9.269394179210e-13       5.685067574705e-17       2.418402248832e-11       2.880877974886e-12       8.365183808910e+02 
   73       2.724124128005e-10       5.165438562995e-14      -9.932904857242e-13       5.843032831346e-17       2.339928769442e-11       2.801864268575e-12       8.597550025824e+02 
   74       2.759338390565e-10       5.359202499506e-14      -1.061264413441e-12       6.003156327190e-17       2.264898299928e-11       2.726050643897e-12       8.833099341600e+02 
   75       2.794883881656e-10       5.555698244197e-14      -1.130833640963e-12       6.165437613955e-17       2.192932421906e-11       2.652991309125e-12       9.071831756238e+02 
   76       2.830753020435e-10       5.754819401974e-14      -1.201967525595e-12       6.329876248181e-17       2.123659177230e-11       2.582259543221e-12       9.313747269738e+02 
   77       2.866953037503e-10       5.956428639900e-14      -1.274627463087e-12       6.496471820391e-17       2.057022990353e-11       2.513822363026e-12       9.558845882099e+02 
   78       2.903492711120e-10       6.160374598916e-14      -1.348770903031e-12       6.665223932008e-17       1.993024714305e-11       2.447727188472e-12       9.807127593323e+02 
   79       2.940377483629e-10       6.366497886547e-14      -1.424352780422e-12       6.836132187447e-17       1.931627226981e-11       2.383988373856e-12       1.005859240341e+03 
   80       2.977609268326e-10       6.574630958240e-14      -1.501325501056e-12       7.009196194707e-17       1.872753686183e-11       2.322585604414e-12       1.031324031235e+03 
   81       3.015186256316e-10       6.784597998690e-14      -1.579638926911e-12       7.184415565954e-17       1.816285784660e-11       2.263462292914e-12       1.057107132016e+03 
   82       3.053102723380e-10       6.996214803174e-14      -1.659240361542e-12       7.361789918110e-17       1.762062005150e-11       2.206523976236e-12       1.083208542683e+03 
   83       3.091348836833e-10       7.209288658880e-14      -1.740074535472e-12       7.541318873442e-17       1.709875875421e-11       2.151636711962e-12       1.109628263237e+03 
   84       3.129914821278e-10       7.423625618097e-14      -1.822085356185e-12       7.723002060005e-17       1.659526159093e-11       2.098662230592e-12       1.136366293676e+03 
   85       3.168804672415e-10       7.639053963085e-14      -1.905221523461e-12       7.906839111770e-17       1.610980810572e-11       2.047573600103e-12       1.163422634002e+03 
   86       3.208024373152e-10       7.855404431697e-14      -1.989431822489e-12       8.092829669596e-17       1.564237127451e-11       1.998355885495e-12       1.190797284214e+03 
   87       3.247577618735e-10       8.072503176864e-14      -2.074663456849e-12       8.280973381952e-17       1.519271372125e-11       1.950970126868e-12       1.218490244312e+03 
   88       3.287465696874e-10       8.290171772164e-14      -2.160862063564e-12       8.471269905497e-17       1.476037899705e-11       1.905352353746e-12       1.246501514296e+03 
   89       3.327687367858e-10       8.508227217379e-14      -2.247971728143e-12       8.663718905670e-17       1.434468285927e-11       1.861412599408e-12       1.274831094166e+03 
   90       3.368238744678e-10       8.726481944065e-14      -2.335934999632e-12       8.858320057275e-17       1.394470455064e-11       1.819033915211e-12       1.303478983923e+03 
   91       3.409113173146e-10       8.944743821113e-14      -2.424692905659e-12       9.055073045062e-17       1.355927807839e-11       1.778071384918e-12       1.332445183565e+03 
   92       3.450301112017e-10       9.162816160313e-14      -2.514184967480e-12       9.253977564314e-17       1.318698349332e-11       1.738351139027e-12       1.361729693094e+03 
   93       3.491793316147e-10       9.380500481590e-14      -2.604349215400e-12       9.455033306492e-17       1.282648382836e-11       1.699712528175e-12       1.391332512509e+03 
   94       3.533591193983e-10       9.597605272375e-14      -2.695122204994e-12       9.658239912409e-17       1.247761282410e-11       1.662144039918e-12       1.421253641811e+03 
   95       3.575697793446e-10       9.813938562058e-14      -2.786439031155e-12       9.863597013062e-17       1.214043543439e-11       1.625666096550e-12       1.451493080998e+03 
   96       3.618114564148e-10       1.002930532257e-13      -2.878233342796e-12       1.007110424432e-16       1.181491282071e-11       1.590289329474e-12       1.482050830072e+03 
   97       3.660841282857e-10       1.024350751181e-13      -2.970437357896e-12       1.028076124731e-16       1.150089837610e-11       1.556014185965e-12       1.512926889032e+03 
   98       3.703875978955e-10       1.045634411713e-13      -3.062981878557e-12       1.049256766878e-16       1.119813374908e-11       1.522830535936e-12       1.544121257878e+03 
   99       3.747214859901e-10       1.066761119874e-13      -3.155796306056e-12       1.070652316151e-16       1.090624486756e-11       1.490717278700e-12       1.575633936610e+03 
  100       3.790852236689e-10       1.087710193316e-13      -3.248808655894e-12       1.092262738466e-16       1.062473796278e-11       1.459641949737e-12       1.607464925228e+03 
  101       3.834780449311e-10       1.108460665668e-13      -3.341945572851e-12       1.114088000416e-16       1.035299559324e-11       1.429560327460e-12       1.639614223733e+03 
  102       3.878989792216e-10       1.128991290881e-13      -3.435132346039e-12       1.136128069310e-16       1.009027266857e-11       1.400416039975e-12       1.672081832123e+03 
  103       3.923468439774e-10       1.149280547570e-13      -3.528292923952e-12       1.158382913211e-16       9.835692473533e-12       1.372140171850e-12       1.704867750400e+03 
  104       3.968204926799e-10       1.169307187263e-13      -3.621350937573e-12       1.180852497128e-16       9.588445422022e-12       1.344667390703e-12       1.737971978563e+03 
  105       4.013196132308e-10       1.189051954130e-13      -3.714232894672e-12       1.203536770938e-16       9.348424460696e-12       1.317987654965e-12       1.771394516613e+03 
  106       4.058440240312e-10       1.208496106744e-13      -3.806865447077e-12       1.226435679896e-16       9.115668486168e-12       1.292100790496e-12       1.805135364548e+03 
  107       4.103934235154e-10       1.227620905122e-13      -3.899174446976e-12       1.249549168332e-16       8.890165552519e-12       1.267000385361e-12       1.839194522370e+03 
