# dimensionless DLM: total delensed [l(l+1)/2pi] C_l's
# for l=2 to 4500, i.e. number of multipoles equal to 4499
#
# -> if you prefer output in CAMB/HealPix/LensPix units/order, set 'format' to 'camb' in input file
# -> if you don't want to see such a header, set 'headers' to 'no' in input file
# -> for CMB lensing (phi), these are C_l^phi-phi for the lensing potential.
#    Remember the conversion factors:
#    C_l^dd (deflection) = l(l+1) C_l^phi-phi
#    C_l^gg (shear/convergence) = 1/4 (l(l+1))^2 C_l^phi-phi
#
# 1:l     2:TT                     3:EE                     4:TE                     5:BB                     6:phiphi                 7:TPhi                   8:Ephi               
    2       1.442211544095e-10       4.349910294313e-15       3.687416703049e-13       6.508735311017e-20       8.658601461385e-09       4.712830094414e-10       8.040912219913e+02 
    3       1.364962091927e-10       5.557337383248e-15       4.133177129513e-13       1.296949152441e-19       5.323031677275e-09       3.345691144846e-10       1.618683635190e+03 
    4       1.291812430070e-10       4.792418040896e-15       3.858647790531e-13       2.156048299578e-19       3.705458494145e-09       2.535306633883e-10       2.715308043995e+03 
    5       1.236971132467e-10       3.187325217109e-15       3.281618201145e-13       3.229209081202e-19       2.769189878610e-09       2.003116308207e-10       4.099215044011e+03 
    6       1.199322312636e-10       1.777945693529e-15       2.640002071469e-13       4.517175837665e-19       2.165435812452e-09       1.629865600720e-10       5.775655230841e+03 
    7       1.175021368551e-10       9.608228684816e-16       2.071313352476e-13       6.020089856482e-19       1.748789680005e-09       1.356252323053e-10       7.749879200089e+03 
    8       1.160846486763e-10       6.216647742733e-16       1.635187159408e-13       7.737851504052e-19       1.446637061335e-09       1.148984324271e-10       1.002713754736e+04 
    9       1.154206115663e-10       4.996667997118e-16       1.344033637916e-13       9.670598517037e-19       1.219013291956e-09       9.878261671097e-11       1.261268086825e+04 
   10       1.152936747299e-10       4.254129074887e-16       1.183463658305e-13       1.181779359944e-18       1.042474531672e-09       8.598420359139e-11       1.551175975837e+04 
   11       1.156103671520e-10       3.572789063602e-16       1.125697318657e-13       1.417953001780e-18       8.756662264852e-10       7.593310184607e-11       1.872962481333e+04 
   12       1.162616588447e-10       3.116601946517e-16       1.139029676792e-13       1.675572610790e-18       7.654110405932e-10       6.721253080881e-11       2.227152662872e+04 
   13       1.171679018373e-10       2.994871859670e-16       1.195035922199e-13       1.954638037547e-18       6.748807196711e-10       6.007592062834e-11       2.614271580015e+04 
   14       1.182514785682e-10       3.122131104911e-16       1.272635664528e-13       2.255154892731e-18       5.995387102791e-10       5.383405407470e-11       3.034844292322e+04 
   15       1.195240927158e-10       3.378419606291e-16       1.358635203948e-13       2.577131606061e-18       5.361052252502e-10       4.858463529685e-11       3.489395859354e+04 
   16       1.209523004507e-10       3.741539316929e-16       1.446183264635e-13       2.920572743931e-18       4.821603955327e-10       4.409637215656e-11       3.978451340671e+04 
   17       1.224860496979e-10       4.268534502676e-16       1.533836041742e-13       3.285484221980e-18       4.358746543584e-10       4.020068257923e-11       4.502535795834e+04 
   18       1.241072945568e-10       5.013074870190e-16       1.623407341075e-13       3.671869254819e-18       3.956899843618e-10       3.675191747443e-11       5.050375341434e+04 
   19       1.258290484690e-10       5.978448173084e-16       1.716966294240e-13       4.079732744049e-18       3.609754545017e-10       3.372585597299e-11       5.624638093780e+04 
   20       1.276152660967e-10       7.144708878517e-16       1.816173399733e-13       4.509080365273e-18       3.303934275655e-10       3.106550059575e-11       6.234027017346e+04 
   21       1.294773701476e-10       8.505001229150e-16       1.920793782618e-13       4.959917492271e-18       3.034653510036e-10       2.872549019008e-11       6.878805373849e+04 
   22       1.314080523038e-10       1.005383845509e-15       2.029101849686e-13       5.432249245230e-18       2.795493320968e-10       2.662486190299e-11       7.556472290591e+04 
   23       1.334002577494e-10       1.179380860304e-15       2.137402204050e-13       5.926080954671e-18       2.583178909569e-10       2.473083275248e-11       8.267137874282e+04 
   24       1.354285356339e-10       1.372813022800e-15       2.240943168195e-13       6.441417800993e-18       2.392813668456e-10       2.300705598809e-11       9.011870530033e+04 
   25       1.375108740543e-10       1.585785352507e-15       2.336735363743e-13       6.978264799772e-18       2.222169565101e-10       2.145637792496e-11       9.791735833320e+04 
   26       1.396585926933e-10       1.818574762980e-15       2.422403057459e-13       7.536626628050e-18       2.068169652739e-10       2.007458046072e-11       1.060711294096e+05 
   27       1.418530444086e-10       2.073259482136e-15       2.496987791105e-13       8.116507705562e-18       1.928973871522e-10       1.882903895168e-11       1.145469948921e+05 
   28       1.440588608035e-10       2.352464817478e-15       2.560263521786e-13       8.717912082891e-18       1.802189049110e-10       1.767239399418e-11       1.233050317160e+05 
   29       1.462862483481e-10       2.657713306349e-15       2.612868791300e-13       9.340843740745e-18       1.687172526001e-10       1.660355642386e-11       1.323543461497e+05 
   30       1.485495791948e-10       2.990175862677e-15       2.656084261087e-13       9.985306240626e-18       1.582694181758e-10       1.562843459353e-11       1.417248280985e+05 
   31       1.508523319970e-10       3.350954948233e-15       2.691204497535e-13       1.065130268147e-17       1.486628829351e-10       1.474401723626e-11       1.514479068491e+05 
   32       1.531968120362e-10       3.740989911196e-15       2.717605029937e-13       1.133883614366e-17       1.398484284680e-10       1.394109460331e-11       1.615292687652e+05 
   33       1.555752253393e-10       4.161101851939e-15       2.733938447836e-13       1.204790930192e-17       1.317641008384e-10       1.320068872558e-11       1.719660088257e+05 
   34       1.579732830395e-10       4.612063883747e-15       2.738745501268e-13       1.277852435197e-17       1.242971975325e-10       1.250015059476e-11       1.827523425740e+05 
   35       1.603970444584e-10       5.094791889968e-15       2.730916151716e-13       1.353068336840e-17       1.174097362324e-10       1.184053627047e-11       1.938754485405e+05 
   36       1.628537404118e-10       5.610212159123e-15       2.709371446680e-13       1.430438798216e-17       1.110466688345e-10       1.122798679295e-11       2.053177924342e+05 
   37       1.653452452184e-10       6.159203183733e-15       2.673102440874e-13       1.509963937668e-17       1.051254275203e-10       1.066570115835e-11       2.170638359645e+05 
   38       1.678727378017e-10       6.742580392744e-15       2.621746127121e-13       1.591643876929e-17       9.963087966262e-11       1.015210821091e-11       2.291201684971e+05 
   39       1.704323270804e-10       7.361100013076e-15       2.555202887183e-13       1.675478701753e-17       9.454575510393e-11       9.681559116597e-12       2.415021510162e+05 
   40       1.730129117762e-10       8.015458200782e-15       2.473490962649e-13       1.761468444197e-17       8.982175904629e-11       9.244396528590e-12       2.542288411708e+05 
   41       1.756015662986e-10       8.706319491611e-15       2.376690893617e-13       1.849613094268e-17       8.539643843171e-11       8.829910765930e-12       2.673172678862e+05 
   42       1.782034824163e-10       9.434422600782e-15       2.264740800856e-13       1.939912648568e-17       8.125689341302e-11       8.437154423405e-12       2.807624266792e+05 
   43       1.808273462406e-10       1.020050254659e-14       2.137585860371e-13       2.032367071116e-17       7.739224880743e-11       8.067096070941e-12       2.945511830965e+05 
   44       1.834795420413e-10       1.100525967966e-14       1.995237327362e-13       2.126976276588e-17       7.377453306833e-11       7.719539415706e-12       3.086675169871e+05 
   45       1.861640475640e-10       1.184932664996e-14       1.837654848188e-13       2.223740142978e-17       7.036869732405e-11       7.393457550135e-12       3.230971001418e+05 
   46       1.888827409353e-10       1.273316146064e-14       1.664345680795e-13       2.322658560492e-17       6.716945328345e-11       7.088355804429e-12       3.378430518502e+05 
   47       1.916347103359e-10       1.365711960519e-14       1.474649814109e-13       2.423731392626e-17       6.417313204108e-11       6.803142406015e-12       3.529146116175e+05 
   48       1.944158250109e-10       1.462147927375e-14       1.267845339401e-13       2.526958460252e-17       6.136657143284e-11       6.535652247990e-12       3.683229092622e+05 
   49       1.972184659851e-10       1.562643787936e-14       1.043143975637e-13       2.632339539781e-17       5.872640972790e-11       6.282569779747e-12       3.840810723050e+05 
   50       2.000347257709e-10       1.667213652623e-14       7.998287723968e-14       2.739874377227e-17       5.622613490945e-11       6.040399210448e-12       4.002006700340e+05 
   51       2.028676561381e-10       1.775874930379e-14       5.377216647471e-14       2.849562739206e-17       5.386112692101e-11       5.808864478372e-12       4.166796586642e+05 
   52       2.057226079496e-10       1.888641222592e-14       2.568350961463e-14       2.961404372592e-17       5.162919195811e-11       5.588298876516e-12       4.335113496543e+05 
   53       2.086039254882e-10       2.005519529962e-14      -4.275690339612e-15       3.075398988745e-17       4.952306773915e-11       5.378651236417e-12       4.506877235798e+05 
   54       2.115148404188e-10       2.126510036622e-14      -3.609165012614e-14       3.191546262413e-17       4.753008216629e-11       5.179458104076e-12       4.681993651283e+05 
   55       2.144575499794e-10       2.251609148865e-14      -6.975110754599e-14       3.309845845533e-17       4.563602832197e-11       4.990067074527e-12       4.860376792042e+05 
   56       2.174337172205e-10       2.380819989910e-14      -1.052645407716e-13       3.430297415146e-17       4.383869870707e-11       4.810435508019e-12       5.042023328426e+05 
   57       2.204439093025e-10       2.514144134123e-14      -1.426483290529e-13       3.552900635466e-17       4.213711531579e-11       4.640481496028e-12       5.226955481674e+05 
   58       2.234873274469e-10       2.651578493682e-14      -1.819181898539e-13       3.677655143525e-17       4.052743466268e-11       4.479832440759e-12       5.415200066091e+05 
   59       2.265617080762e-10       2.793115229498e-14      -2.230892347638e-13       3.804560548659e-17       3.900277071629e-11       4.327807016471e-12       5.606788727761e+05 
   60       2.296632239539e-10       2.938741662133e-14      -2.661760254074e-13       3.933616431989e-17       3.755301783291e-11       4.183397130810e-12       5.801758183248e+05 
   61       2.327880525537e-10       3.088432604960e-14      -3.111884054690e-13       4.064822361871e-17       3.616766162886e-11       4.045545381161e-12       6.000141946516e+05 
   62       2.359377161930e-10       3.242125554196e-14      -3.581177770346e-13       4.198177945437e-17       3.484534945152e-11       3.914091007967e-12       6.201942799669e+05 
   63       2.391147705754e-10       3.399739746591e-14      -4.069478290237e-13       4.333682787759e-17       3.358616367235e-11       3.789005227150e-12       6.407154538440e+05 
   64       2.423211982837e-10       3.561182922783e-14      -4.576584126909e-13       4.471336476902e-17       3.238874267717e-11       3.670105980174e-12       6.615769907967e+05 
   65       2.455583628193e-10       3.726350997786e-14      -5.102254635166e-13       4.611138583918e-17       3.125019860489e-11       3.557049271207e-12       6.827780571428e+05 
   66       2.488269626424e-10       3.895127731472e-14      -5.646209230968e-13       4.753088662835e-17       3.016603508623e-11       3.449320504282e-12       7.043177078678e+05 
   67       2.521269852118e-10       4.067384399051e-14      -6.208126610338e-13       4.897186250646e-17       2.913006498247e-11       3.346225820459e-12       7.261948834878e+05 
   68       2.554581947830e-10       4.242992620841e-14      -6.787678079424e-13       5.043430880768e-17       2.813606544892e-11       3.247074779360e-12       7.484089420430e+05 
   69       2.588218133123e-10       4.421866606894e-14      -7.384637133083e-13       5.191822126590e-17       2.718331643023e-11       3.151790751656e-12       7.709613872633e+05 
   70       2.622190991484e-10       4.603928919618e-14      -7.998790778621e-13       5.342359566769e-17       2.627204178865e-11       3.060409214138e-12       7.938544865486e+05 
   71       2.656508116801e-10       4.789098078770e-14      -8.629907478851e-13       5.495042772884e-17       2.540173412479e-11       2.972893647094e-12       8.170907771829e+05 
   72       2.691171790275e-10       4.977288568500e-14      -9.277737243410e-13       5.649871309765e-17       2.457111694921e-11       2.889131765186e-12       8.406730768832e+05 
   73       2.726178657329e-10       5.168410844388e-14      -9.942011720061e-13       5.806844735831e-17       2.377810685400e-11       2.808931748331e-12       8.646044943499e+05 
   74       2.761519404520e-10       5.362371340477e-14      -1.062244428601e-12       5.965962603426e-17       2.301977568439e-11       2.732018472578e-12       8.888884398156e+05 
   75       2.797178436444e-10       5.559072476318e-14      -1.131873013919e-12       6.127224459154e-17       2.229231271032e-11       2.658029740992e-12       9.135286355953e+05 
   76       2.833140602697e-10       5.758406663937e-14      -1.203054151548e-12       6.290629852713e-17       2.159197200525e-11       2.586610198585e-12       9.385282376407e+05 
   77       2.869413509129e-10       5.960237051528e-14      -1.275751213135e-12       6.456178364514e-17       2.091819765158e-11       2.517721180441e-12       9.638869919470e+05 
   78       2.906008707068e-10       6.164413264752e-14      -1.349925005696e-12       6.623869583732e-17       2.027100235265e-11       2.451380780671e-12       9.896035763609e+05 
   79       2.942934828579e-10       6.370776981161e-14      -1.425534233010e-12       6.793703100755e-17       1.965001544248e-11       2.387569443438e-12       1.015676436017e+06 
   80       2.980197407935e-10       6.579161814200e-14      -1.502535494759e-12       6.965678507694e-17       1.905446525985e-11       2.326228196931e-12       1.042103775660e+06 
   81       3.017798703104e-10       6.789393197207e-14      -1.580883285661e-12       7.139795398893e-17       1.848316152232e-11       2.267256887331e-12       1.068883551960e+06 
   82       3.055737517216e-10       7.001288267415e-14      -1.660529994607e-12       7.316053371440e-17       1.793447770035e-11       2.210512412785e-12       1.096013465840e+06 
   83       3.094009020047e-10       7.214655749954e-14      -1.741425903797e-12       7.494452025677e-17       1.740633339128e-11       2.155806957372e-12       1.123490954788e+06 
   84       3.132607908012e-10       7.429302902569e-14      -1.823519609636e-12       7.674990965524e-17       1.689670081669e-11       2.102954824278e-12       1.151313600859e+06 
   85       3.171538877103e-10       7.645057926673e-14      -1.906759367476e-12       7.857669798419e-17       1.640525939895e-11       2.051925724357e-12       1.179480449200e+06 
   86       3.210807566903e-10       7.861751076170e-14      -1.991091969257e-12       8.042488136307e-17       1.593198443745e-11       2.002713779790e-12       1.207990895041e+06 
   87       3.250417255822e-10       8.079207929694e-14      -2.076462347699e-12       8.229445596316e-17       1.547663868602e-11       1.955290249058e-12       1.236844286773e+06 
   88       3.290368738687e-10       8.297249393283e-14      -2.162813582531e-12       8.418541801264e-17       1.503876353580e-11       1.909602577701e-12       1.266039925251e+06 
   89       3.330660204330e-10       8.515691703042e-14      -2.250086906711e-12       8.609776380170e-17       1.461767019811e-11       1.865573449086e-12       1.295577063101e+06 
   90       3.371287113169e-10       8.734346427818e-14      -2.338221712654e-12       8.803148968756e-17       1.421243088724e-11       1.823099835168e-12       1.325454904027e+06 
   91       3.412242074797e-10       8.953020471864e-14      -2.427155558455e-12       8.998659209956e-17       1.382187000339e-11       1.782052047258e-12       1.355672602115e+06 
   92       3.453514725570e-10       9.171516077511e-14      -2.516824174112e-12       9.196306754423e-17       1.344455531547e-11       1.742272786779e-12       1.386229261145e+06 
   93       3.495095006968e-10       9.389633846921e-14      -2.607162281428e-12       9.396091246578e-17       1.307913837902e-11       1.703615464124e-12       1.417124240327e+06 
   94       3.536983830578e-10       9.607182321430e-14      -2.698106181233e-12       9.598012279262e-17       1.272545350764e-11       1.666067809487e-12       1.448358125652e+06 
   95       3.579183798257e-10       9.823969854579e-14      -2.789591568597e-12       9.802069433169e-17       1.238356855402e-11       1.629645184566e-12       1.479931904035e+06 
   96       3.621695869564e-10       1.003980176492e-13      -2.881552770991e-12       1.000826229100e-16       1.205344643275e-11       1.594352566269e-12       1.511846673354e+06 
   97       3.664519286028e-10       1.025448038012e-13      -2.973922765679e-12       1.021659043777e-16       1.173494109715e-11       1.560184136505e-12       1.544103645966e+06 
   98       3.707651495413e-10       1.046780508109e-13      -3.066633197110e-12       1.042705346112e-16       1.142779351594e-11       1.527122871970e-12       1.576704152219e+06 
   99       3.751088075990e-10       1.067957234607e-13      -3.159614394314e-12       1.063965095161e-16       1.113162765002e-11       1.495140133939e-12       1.609649643966e+06 
  100       3.794822660803e-10       1.088957579478e-13      -3.252795388297e-12       1.085438250307e-16       1.084594642922e-11       1.464195258059e-12       1.642941698073e+06 
  101       3.838846861941e-10       1.109760623248e-13      -3.346103929429e-12       1.107124771283e-16       1.057012772905e-11       1.434235144133e-12       1.676582019938e+06 
  102       3.883150194802e-10       1.130345169412e-13      -3.439466504845e-12       1.129024618213e-16       1.030342034743e-11       1.405193845917e-12       1.710572446998e+06 
  103       3.927720002363e-10       1.150689748846e-13      -3.532808355831e-12       1.151137751633e-16       1.004493998142e-11       1.376992160908e-12       1.744914952245e+06 
  104       3.972544150572e-10       1.170773153584e-13      -3.626054264859e-12       1.173464128827e-16       9.793870062913e-12       1.349556221108e-12       1.779611300589e+06 
  105       4.017619692313e-10       1.190576110796e-13      -3.719131000276e-12       1.196003692185e-16       9.550103828737e-12       1.322877008986e-12       1.814661957502e+06 
  106       4.062945238080e-10       1.210079844217e-13      -3.811965235817e-12       1.218756379319e-16       9.313681888120e-12       1.296958153932e-12       1.850067038813e+06 
  107       4.108518244629e-10       1.229265575077e-13      -3.904482836005e-12       1.241722126615e-16       9.084593358370e-12       1.271797450246e-12       1.885826644389e+06 
