# dimensionless total lensed [l(l+1)/2pi] C_l's
# for l=2 to 5000, i.e. number of multipoles equal to 4999
#
# -> if you prefer output in CAMB/HealPix/LensPix units/order, set 'format' to 'camb' in input file
# -> if you don't want to see such a header, set 'headers' to 'no' in input file
# -> for CMB lensing (phi), these are C_l^phi-phi for the lensing potential.
#    Remember the conversion factors:
#    C_l^dd (deflection) = l(l+1) C_l^phi-phi
#    C_l^gg (shear/convergence) = 1/4 (l(l+1))^2 C_l^phi-phi
#
# 1:l     2:TT                     3:EE                     4:TE                     5:BB                     6:phiphi                 7:TPhi                   8:Ephi               
    2       1.442217892262e-10       4.350100711073e-15       3.687419621516e-13       2.539976682071e-19       8.652810720363e-09       4.711235663361e-10      -1.924777287267e-12 
    3       1.364973142198e-10       5.557727274482e-15       4.133186716109e-13       5.081218533450e-19       5.314514195883e-09       3.344331570476e-10      -1.455006508234e-12 
    4       1.291830517777e-10       4.793070397614e-15       3.858665665903e-13       8.471474087289e-19       3.696745516164e-09       2.534153903775e-10      -9.501914734102e-13 
    5       1.236998393023e-10       3.188295585455e-15       3.281640963243e-13       1.271233424944e-18       2.761044581646e-09       2.002125135115e-10      -5.261814040585e-13 
    6       1.199361825853e-10       1.779291900844e-15       2.640026421690e-13       1.780570812158e-18       2.157962496630e-09       1.629006240355e-10      -2.146496290845e-13 
    7       1.175070607109e-10       9.626082748051e-16       2.071336861288e-13       2.375377450802e-18       1.741902619519e-09       1.355492953674e-10      -1.669856176995e-14 
    8       1.160908791303e-10       6.239563073111e-16       1.635206999943e-13       3.055892800687e-18       1.440216876875e-09       1.148291292064e-10       8.361757942142e-14 
    9       1.154256833867e-10       5.025218451299e-16       1.344022259743e-13       3.822372172299e-18       1.212957218311e-09       9.871765347416e-11       1.109418071846e-13 
   10       1.152998056423e-10       4.289063482056e-16       1.183449334965e-13       4.675080874894e-18       1.036712858216e-09       8.592207581714e-11       9.245270445431e-14 
   11       1.156178813754e-10       3.614760099154e-16       1.125679691099e-13       5.614288458053e-18       8.738163633714e-10       7.588500903325e-11       5.335593844135e-14 
   12       1.162701603552e-10       3.166261521903e-16       1.139005332358e-13       6.640263256480e-18       7.636506130161e-10       6.716568561954e-11       1.202153040195e-14 
   13       1.171776280113e-10       3.052874377039e-16       1.195004527956e-13       7.753267432377e-18       6.732011674490e-10       6.003135087049e-11      -1.928040267234e-14 
   14       1.182627180260e-10       3.189134030430e-16       1.272596412184e-13       8.953552686311e-18       5.979334709158e-10       5.379177737384e-11      -3.616379215851e-14 
   15       1.195371848694e-10       3.455084873717e-16       1.358582072554e-13       1.024135677712e-17       5.345686200295e-10       4.854415327700e-11      -3.896195268837e-14 
   16       1.209663945019e-10       3.828529697612e-16       1.446115212521e-13       1.161690095531e-17       4.806862398486e-10       4.405714741214e-11      -3.188281713734e-14 
   17       1.225020841654e-10       4.366511035802e-16       1.533748904636e-13       1.308038837428e-17       4.344578126557e-10       4.016215550818e-11      -2.037581178721e-14 
   18       1.241250641595e-10       5.122701198655e-16       1.623294660852e-13       1.463200302789e-17       3.943284012326e-10       3.671418713549e-11      -9.580982799193e-15 
   19       1.258482206525e-10       6.100388834430e-16       1.716822864040e-13       1.627191250320e-17       3.596633090566e-10       3.368936550091e-11      -2.141322164399e-15 
   20       1.276360867142e-10       7.279627639192e-16       1.815996056988e-13       1.800026411302e-17       3.291279933640e-10       3.103076808568e-11       2.923667548941e-16 
   21       1.295000042462e-10       8.653559710518e-16       1.920578814950e-13       1.981719393452e-17       3.022440783786e-10       2.869215538040e-11      -1.608438804814e-15 
   22       1.314323995143e-10       1.021669568683e-15       2.028844156218e-13       2.172282229818e-17       2.783696503587e-10       2.659161226622e-11      -5.971235655833e-15 
   23       1.334263698285e-10       1.197162369992e-15       2.137096445173e-13       2.371726461735e-17       2.571773435400e-10       2.469744281813e-11      -1.102903021751e-14 
   24       1.354567119803e-10       1.392156303331e-15       2.240584295355e-13       2.580062683362e-17       2.381781179845e-10       2.297483936000e-11      -1.493308130232e-14 
   25       1.375412616584e-10       1.606756263428e-15       2.336319042867e-13       2.797301801175e-17       2.211491610709e-10       2.142578209429e-11      -1.684451217476e-14 
   26       1.396910787512e-10       1.841238912680e-15       2.421925576758e-13       3.023454496801e-17       2.057829107415e-10       2.004460003302e-11      -1.642327075439e-14 
   27       1.418875464036e-10       2.097682029045e-15       2.496444332912e-13       3.258532309169e-17       1.918954271140e-10       1.879914581632e-11      -1.431613889250e-14 
   28       1.440954166989e-10       2.378710387640e-15       2.559647804814e-13       3.502547257668e-17       1.792476462275e-10       1.764307722849e-11      -1.157410852431e-14 
   29       1.463249330059e-10       2.685846144639e-15       2.612174875646e-13       3.755513051680e-17       1.677752395713e-10       1.657531500382e-11      -8.888684994198e-15 
   30       1.485904815184e-10       3.020259859664e-15       2.655307317979e-13       4.017444304547e-17       1.573552968504e-10       1.560140875794e-11      -6.961474906683e-15 
   31       1.508955538940e-10       3.383053548514e-15       2.690340776484e-13       4.288356437024e-17       1.477756111590e-10       1.471798087935e-11      -6.433893999755e-15 
   32       1.532424552681e-10       3.775165785953e-15       2.716650485612e-13       4.568266376264e-17       1.389868959908e-10       1.391579376191e-11      -7.086285428599e-15 
   33       1.556233856222e-10       4.197416709488e-15       2.732888190762e-13       4.857192313933e-17       1.309271662111e-10       1.317596487906e-11      -8.323965743342e-15 
   34       1.580240369367e-10       4.650578450740e-15       2.737593784387e-13       5.155153384869e-17       1.234838318886e-10       1.247595120920e-11      -9.495073246578e-15 
   35       1.604504013645e-10       5.135566298731e-15       2.729657077223e-13       5.462168759986e-17       1.166189250256e-10       1.181683331576e-11      -1.032558140576e-14 
   36       1.629096155108e-10       5.653306073537e-15       2.707999200830e-13       5.778258403888e-17       1.102775025197e-10       1.120475702812e-11      -1.062826977850e-14 
   37       1.654034734884e-10       6.204675694653e-15       2.671611595130e-13       6.103442466759e-17       1.043771843170e-10       1.064292978641e-11      -1.026067405331e-14 
   38       1.679332016605e-10       6.790489474348e-15       2.620132807869e-13       6.437738062475e-17       9.890280490120e-11       1.012978792935e-11      -9.379783377731e-15 
   39       1.704950089115e-10       7.411502268703e-15       2.553465392509e-13       6.781161493112e-17       9.383706375671e-11       9.659692930284e-12      -8.275568921150e-15 
   40       1.730779180144e-10       8.068408718093e-15       2.471630177687e-13       7.133729126630e-17       8.913173122013e-11       9.223002256216e-12      -7.308662170108e-15 
   41       1.756691134652e-10       8.761871761457e-15       2.374709759577e-13       7.495455989324e-17       8.472446781678e-11       8.809018137486e-12      -6.815952977397e-15 
   42       1.782737504126e-10       9.492628667546e-15       2.262640517053e-13       7.866350965533e-17       8.060235413442e-11       8.416776191262e-12      -6.779473043283e-15 
   43       1.809004237582e-10       1.026141299160e-14       2.135364329987e-13       8.246420053879e-17       7.675450019383e-11       8.047217249439e-12      -7.057390229137e-15 
   44       1.835554066679e-10       1.106892353940e-14       1.992888439671e-13       8.635667566100e-17       7.315298074278e-11       7.700113383568e-12      -7.471455844509e-15 
   45       1.862425741329e-10       1.191579127280e-14       1.835169247179e-13       9.034095113048e-17       6.976282150676e-11       7.374411276514e-12      -7.846725416262e-15 
   46       1.889638074650e-10       1.280247216105e-14       1.661716623045e-13       9.441698407213e-17       6.657871452790e-11       7.069626109699e-12      -8.150190115709e-15 
   47       1.917182335441e-10       1.372931945718e-14       1.471875386633e-13       9.858469355570e-17       6.359697192698e-11       6.784690169167e-12      -8.389758777714e-15 
   48       1.945017694322e-10       1.469660895392e-14       1.264929325085e-13       1.028439676604e-16       6.080445121124e-11       6.517468473022e-12      -8.576042913465e-15 
   49       1.973068536018e-10       1.570453550490e-14       1.040096764240e-13       1.071946620670e-16       5.817785208237e-11       6.264682023041e-12      -8.722521330497e-15 
   50       2.001256310083e-10       1.675323761765e-14       7.966665985380e-14       1.116366056853e-16       5.569073835294e-11       6.022867600517e-12      -8.844882349222e-15 
   51       2.029611510839e-10       1.784288717342e-14       5.344601857812e-14       1.161696226022e-16       5.333848211398e-11       5.791742344708e-12      -8.958458043377e-15 
   52       2.058187447238e-10       1.897361804742e-14       2.534871725451e-14       1.207935136582e-16       5.111887486932e-11       5.571619786886e-12      -9.080378108948e-15 
   53       2.087027323825e-10       2.014549805885e-14      -4.618187782827e-15       1.255080488807e-16       4.902466260169e-11       5.362425820875e-12      -9.230454329125e-15 
   54       2.116163178361e-10       2.135852681309e-14      -3.644133044783e-14       1.303129664080e-16       4.704320611527e-11       5.163670733219e-12      -9.431306492985e-15 
   55       2.145616727406e-10       2.261266600525e-14      -7.010780150565e-14       1.352080020284e-16       4.516033990426e-11       4.974678438013e-12      -9.700776057264e-15 
   56       2.175404582893e-10       2.390794408981e-14      -1.056279164392e-13       1.401929888586e-16       4.337384946278e-11       4.795404944245e-12      -1.002667172867e-14 
   57       2.205532470615e-10       2.524437383356e-14      -1.430177216333e-13       1.452677805417e-16       4.168274709137e-11       4.625774221946e-12      -1.038597069851e-14 
   58       2.235992469248e-10       2.662192125883e-14      -1.822925581217e-13       1.504322229139e-16       4.008319446085e-11       4.465421253400e-12      -1.075181047322e-14 
   59       2.266762022310e-10       2.804050475036e-14      -2.234671156419e-13       1.556861541204e-16       3.856832653379e-11       4.313674084262e-12      -1.109331431545e-14 
   60       2.297802950105e-10       2.949999416226e-14      -2.665554866904e-13       1.610294047317e-16       3.712807548603e-11       4.169535874690e-12      -1.137541668529e-14 
   61       2.329077099185e-10       3.100013433048e-14      -3.115670718646e-13       1.664618329727e-16       3.575196769353e-11       4.031959517960e-12      -1.156686902095e-14 
   62       2.360599630731e-10       3.254029756839e-14      -3.584930995941e-13       1.719834393875e-16       3.443864667067e-11       3.900784133077e-12      -1.166675186183e-14 
   63       2.392395994448e-10       3.411967377853e-14      -4.073171627696e-13       1.775942782358e-16       3.318818493104e-11       3.775977884030e-12      -1.168363098081e-14 
   64       2.424485895496e-10       3.573733791842e-14      -4.580190244106e-13       1.832944258561e-16       3.199921941508e-11       3.657355466975e-12      -1.162798547970e-14 
   65       2.456882834342e-10       3.739224670885e-14      -5.105745400844e-13       1.890839818965e-16       3.086886974469e-11       3.544569444306e-12      -1.151229278633e-14 
   66       2.489593646604e-10       3.908323534231e-14      -5.649555803263e-13       1.949630705442e-16       2.979265647777e-11       3.437101578728e-12      -1.135111365173e-14 
   67       2.522618042901e-10       4.080901419132e-14      -6.211299530584e-13       2.009318417566e-16       2.876441936287e-11       3.334254167323e-12      -1.116117714719e-14 
   68       2.555953519695e-10       4.256829707088e-14      -6.790647159415e-13       2.069904613539e-16       2.777796315725e-11       3.235333715240e-12      -1.095835906704e-14 
   69       2.589612275902e-10       4.436022356290e-14      -7.387370662190e-13       2.131390762207e-16       2.683256505740e-11       3.140264544998e-12      -1.074771617912e-14 
   70       2.623606913142e-10       4.618401674574e-14      -8.001255282116e-13       2.193778442311e-16       2.592844149536e-11       3.049084523997e-12      -1.053157606556e-14 
   71       2.657945051029e-10       4.803885928339e-14      -8.632067675767e-13       2.257069456899e-16       2.506508242526e-11       2.961760046279e-12      -1.031247049358e-14 
   72       2.692629004389e-10       4.992389349833e-14      -9.279556004268e-13       2.321265842777e-16       2.424121376107e-11       2.878182285775e-12      -1.009314096006e-14 
   73       2.727655460467e-10       5.183822144448e-14      -9.943450024484e-13       2.386369879964e-16       2.345475981448e-11       2.798163449543e-12      -9.876544236148e-15 
   74       2.763015156143e-10       5.378090498013e-14      -1.062346118020e-12       2.452384101147e-16       2.270280573267e-11       2.721433031012e-12      -9.665857911839e-15 
   75       2.798692555149e-10       5.575096584087e-14      -1.131928269332e-12       2.519311301132e-16       2.198155993610e-11       2.647634063223e-12      -9.464485940551e-15 
   76       2.834672548517e-10       5.774732583939e-14      -1.203058482946e-12       2.587154107419e-16       2.128729556802e-11       2.576415574223e-12      -9.275568913060e-15 
   77       2.870962680108e-10       5.976861471431e-14      -1.275699949659e-12       2.655913580641e-16       2.061945607493e-11       2.507737699826e-12      -9.100399522582e-15 
   78       2.907574406412e-10       6.181332721132e-14      -1.349813299048e-12       2.725590374893e-16       1.997805033191e-11       2.441615661032e-12      -8.939726883049e-15 
   79       2.944516256973e-10       6.387987871171e-14      -1.425357056350e-12       2.796185154424e-16       1.936270666728e-11       2.378026752460e-12      -8.794221629348e-15 
   80       2.981793655630e-10       6.596660407748e-14      -1.502287641686e-12       2.867698594083e-16       1.877265537587e-11       2.316908568290e-12      -8.664471305989e-15 
   81       3.019408741737e-10       6.807175649657e-14      -1.580559369283e-12       2.940131379781e-16       1.820671123226e-11       2.258157228210e-12      -8.550975755761e-15 
   82       3.057360191400e-10       7.019350632797e-14      -1.660124446695e-12       3.013484208936e-16       1.766325600398e-11       2.201625603365e-12      -8.454142508395e-15 
   83       3.095643038709e-10       7.232993994699e-14      -1.740932974032e-12       3.087757790934e-16       1.714022096475e-11       2.147121542297e-12      -8.374282169226e-15 
   84       3.134251861726e-10       7.447912927684e-14      -1.822933365580e-12       3.162953025159e-16       1.663558978897e-11       2.094455680839e-12      -8.311243197114e-15 
   85       3.173191338924e-10       7.663935615733e-14      -1.906073696687e-12       3.239071568008e-16       1.614904132889e-11       2.043597864461e-12      -8.263256773137e-15 
   86       3.212467123159e-10       7.880892322743e-14      -1.990300579778e-12       3.316115361142e-16       1.568054838019e-11       1.994543525359e-12      -8.227891090573e-15 
   87       3.252082512082e-10       8.098608657856e-14      -2.075558768035e-12       3.394086465659e-16       1.522987290263e-11       1.947265477279e-12      -8.202384424713e-15 
   88       3.292038325922e-10       8.316905578779e-14      -2.161791161719e-12       3.472987065527e-16       1.479655727924e-11       1.901712974798e-12      -8.183634460832e-15 
   89       3.332332785272e-10       8.535599395104e-14      -2.248938814494e-12       3.552819471025e-16       1.437991557537e-11       1.857810772617e-12      -8.168187622167e-15 
   90       3.372961388860e-10       8.754501771626e-14      -2.336940939750e-12       3.633586122179e-16       1.397902479791e-11       1.815458184848e-12      -8.152228397897e-15 
   91       3.413916791343e-10       8.973419731659e-14      -2.425734916922e-12       3.715289592206e-16       1.359271615438e-11       1.774528144307e-12      -8.131568671112e-15 
   92       3.455188681076e-10       9.192155660358e-14      -2.515256297815e-12       3.797932590946e-16       1.321956631204e-11       1.734866261798e-12      -8.101637046797e-15 
   93       3.496767033288e-10       9.410510339508e-14      -2.605439637108e-12       3.881518477164e-16       1.285823516385e-11       1.696328524232e-12      -8.058550215173e-15 
   94       3.538652694717e-10       9.628292566791e-14      -2.696221113004e-12       3.966052876109e-16       1.250855622189e-11       1.658902917938e-12      -8.002534542403e-15 
   95       3.580848172342e-10       9.845310996128e-14      -2.787536314251e-12       4.051542312726e-16       1.217059482123e-11       1.622604443342e-12      -7.935001750369e-15 
   96       3.623354324970e-10       1.006137127944e-13      -2.879319468478e-12       4.137993734754e-16       1.184431229451e-11       1.587437701179e-12      -7.857516858706e-15 
   97       3.666170287351e-10       1.027627611157e-13      -2.971503459829e-12       4.225414523154e-16       1.152956198742e-11       1.553396482175e-12      -7.771802365705e-15 
   98       3.709293394296e-10       1.048982527525e-13      -3.064019846605e-12       4.313812502528e-16       1.122608527438e-11       1.520463356722e-12      -7.679742429210e-15 
   99       3.752719104788e-10       1.070181568599e-13      -3.156798878894e-12       4.403195951546e-16       1.093350757404e-11       1.488609264554e-12      -7.583387047515e-15 
  100       3.796440926096e-10       1.091204143702e-13      -3.249769516209e-12       4.493573613366e-16       1.065133436487e-11       1.457793104432e-12      -7.484956240261e-15 
  101       3.840450337895e-10       1.112029384423e-13      -3.342859445125e-12       4.584954706063e-16       1.037894720076e-11       1.427961323815e-12      -7.386844229339e-15 
  102       3.884736716373e-10       1.132636149112e-13      -3.435995096914e-12       4.677348933047e-16       1.011559972661e-11       1.399047508539e-12      -7.291623619785e-15 
  103       3.929287258354e-10       1.153003027368e-13      -3.529101665180e-12       4.770766493488e-16       9.860413693832e-12       1.370971972497e-12      -7.202049580680e-15 
  104       3.974089697552e-10       1.173108873541e-13      -3.622103889711e-12       4.865217283836e-16       9.612578075682e-12       1.343660391714e-12      -7.120457279752e-15 
  105       4.019141034695e-10       1.192934479625e-13      -3.714928490640e-12       4.960708357075e-16       9.371985627887e-12       1.317103457122e-12      -7.046852479804e-15 
  106       4.064439850732e-10       1.212461137775e-13      -3.807502097511e-12       5.057246138085e-16       9.138675290254e-12       1.291304552562e-12      -6.980569603335e-15 
  107       4.109983575344e-10       1.231670141665e-13      -3.899750538172e-12       5.154837203413e-16       8.912635034376e-12       1.266261231356e-12      -6.920852989172e-15 
